Freq,Mag1,Mag2,Zr,Zi,Ar,Ai
1000000.000001223,0.4159880686173848,0.973449037198729,3.1380568051561775,-1.0661369550951743,0.2856921834978766,0.09706229476421445
896924.5376076346,0.415562593264921,0.9748687333757133,3.183122015079746,-0.9628036191065095,0.28782423071562774,0.08705862033774749
804473.6261616852,0.4119698944227155,0.975759946372392,3.237437389379681,-0.8730142518599271,0.28794741920247824,0.07764851347386681
721552.1351617242,0.4035808327062632,0.9767154137403009,3.31583558621635,-0.7980099751381063,0.2850716757804937,0.06860715345713372
647177.8151889396,0.3919347660864597,0.9766786620316492,3.404185375194331,-0.7317568829523734,0.2807819597507569,0.06035632875743247
580469.6626375489,0.3763594814325263,0.9778728178013765,3.5209198456758815,-0.6763901758458525,0.27390817626141517,0.05261943117921529
520637.4837558065,0.3569032416074224,0.9784325908337739,3.6554038518391367,-0.627820214299538,0.26572897895668945,0.045639286731683375
466972.5343783079,0.3324359748666347,0.9788525905473578,3.818263631639233,-0.5864435010537518,0.25586343462411265,0.03929782300762299
418839.1244722169,0.3031684439719646,0.9786268703692557,4.00581844075969,-0.5502415589273937,0.24501396925207455,0.03365526181328439
375667.0880487702,0.2674693347756381,0.9783847228627024,4.232678475558661,-0.5199606635381422,0.232744729974425,0.02859137657899585
336945.0292421377,0.2251531293780859,0.9780874286276465,4.5005705104462965,-0.4943776974484411,0.21954490600172238,0.024116521419615053
302214.2645518258,0.1750062291653961,0.9781587405038792,4.820622712088646,-0.4733994351795833,0.20546065355451862,0.020176845016397243
271063.3894912461,0.1151833726368156,0.9773614596843356,5.197796097327008,-0.45617928944126385,0.19091867782904887,0.01675578363643567
243123.4052814968,0.0457847683908678,0.9766220382920681,5.6386806792228645,-0.4420843657880483,0.17626298096766344,0.013819386588094548
218063.3478634334,-0.0359030430760366,0.9749996302859086,6.156319601596714,-0.4309651207095021,0.16164257949885535,0.01131557786042358
195586.3674513435,-0.1320799790873832,0.9741223665170173,6.777867443103068,-0.4234023588875454,0.14696552851421066,0.009180697611811553
175426.2121884387,-0.2431606710977278,0.9731253340232415,7.503787046211488,-0.41801409803970313,0.13285375972973137,0.007400895601461061
157344.0742511817,-0.3716107242224095,0.97088751558638,8.346984963253293,-0.4143548563838828,0.11950923683874792,0.005932589178592024
141125.7610428699,-0.5202782811382014,0.9697450210017601,9.347767649742485,-0.4131715854537279,0.10676882484231927,0.004719184974430519
126579.1579677468,-0.690810675119526,0.9685555391915153,10.517362269261763,-0.41356197336943434,0.09493408659624444,0.0037329823949787213
113531.9527308462,-0.8846996552046227,0.966432482951308,11.869377320531964,-0.4148279397195443,0.08414763476718506,0.0029409116434744548
101829.5942066815,-1.105251711242658,0.9648920141981248,13.450181740931876,-0.41741462255255474,0.07427690041850084,0.0023051186184502915
91333.4616984892,-1.354011706845112,0.9629155016480473,15.27965513350898,-0.42065391304017435,0.06539693771433089,0.0018003991261588297
81919.22290192186,-1.633699394899064,0.9608152319219228,17.40038415946858,-0.4245333969005943,0.05743580635098397,0.0014013149221558702
73475.36112239314,-1.943482369967966,0.9587138398260218,19.83144735074613,-0.4283889213774307,0.050401444501228625,0.0010887465782941667
65901.85430017585,-2.285627989283446,0.9559430831936917,22.614586807245427,-0.43210920864031255,0.04420310853066491,0.0008446128337179207
59108.99019559865,-2.659491217675142,0.9543124270724275,25.794748495626575,-0.43557688387992133,0.03875652967140932,0.0006544529180865781
53016.30369957669,-3.063990298111964,0.9524639441560534,29.39165291727888,-0.4382595168512845,0.03401570213582552,0.0005072088060294187
47551.6236813506,-3.493609118235646,0.9504429327062941,33.3983684952404,-0.43941715208111476,0.029936400262657967,0.0003938685732164479
42650.21808283547,-3.947882666826199,0.9483946569325147,37.8559697496322,-0.43920034444591133,0.02641235771145827,0.000306432953143772
38254.0271327652,-4.426744813048215,0.9468409573866603,42.81941336082848,-0.437843526845835,0.023351451471423527,0.00023877678526466433
34310.97559764337,-4.924743152514185,0.9448710376227004,48.27477469835203,-0.4349048314845843,0.020713071199797484,0.00018660293695754184
30774.35592274548,-5.437987753601981,0.9429580061046318,54.23418562343208,-0.4303757333332404,0.01843739368826412,0.00014631005772698427
27602.2749561475,-5.963828652474934,0.9412934154636672,60.71852499100805,-0.4243475971906449,0.01646863390827636,0.00011509543799070194
24757.15770193112,-6.499613711674723,0.9402887445247974,67.74985798462711,-0.4170870379215416,0.014759619155073367,9.086433562172845e-05
22205.3022242567,-7.043399699534524,0.9389854392927846,75.33876800183732,-0.40862717586770864,0.013272988251524814,7.199087333646855e-05
19916.48042990486,-7.59465747208781,0.9378817515701411,83.53461565727076,-0.39936403423592703,0.011970811578003952,5.7230305870853594e-05
17863.58000034208,-8.1506408963744,0.9374278572028474,92.35441386228027,-0.38940464109609746,0.010827660317807708,4.565392170918667e-05
16022.28323180421,-8.711444299681482,0.9364750844021903,101.83222517419304,-0.3789361199001688,0.009819938151157172,3.654176518576329e-05
14370.77897908698,-9.274547366464367,0.9343462960795745,111.96197621501673,-0.367831467986018,0.008931507289906998,2.9342903268026437e-05
12889.50429086333,-9.842209311182224,0.9332666628852565,122.87910373674882,-0.35671376849737096,0.008138011610225418,2.3624364934969e-05
11560.91267606008,-10.409882013923,0.9333999603711769,134.5580774277012,-0.3458070847759918,0.007431686113046382,1.9099037076415043e-05
10369.26625628475,-10.97896452649391,0.9318177905939734,147.01907606683505,-0.3351553690081118,0.0068018030712214995,1.550588453718355e-05
9300.449342237273,-11.54687935987983,0.9311231366613761,160.31461129027937,-0.3257653907652323,0.006237708857539619,1.2675261768727854e-05
8341.801225819192,-12.11265081072301,0.9309877119420487,174.46641484878847,-0.3178948541303384,0.005731743160067116,1.0443796058750465e-05
7481.96620727353,-12.67340804075565,0.9317539654475964,189.45705709082245,-0.31131457204751534,0.005278226714160337,8.673146917408687e-06
6710.75908084655,-13.22960651189003,0.9305879212104733,205.25798494625684,-0.30655061935290173,0.004871906784802053,7.276141012013327e-06
6019.044485577167,-13.77871877828872,0.9305636134178951,221.91539326795,-0.30282618135336886,0.00450621348586445,6.149187770132328e-06
5398.628692059481,-14.32217614171311,0.9306773455925916,239.4758909887585,-0.29863686578203574,0.0041757792016388785,5.207378529113751e-06
4842.162543334837,-14.86015475211363,0.930967347700039,257.9823828725676,-0.29292907981151406,0.003876228677299477,4.401308674403583e-06
4343.054400196295,-15.39187836579655,0.9315240527067681,277.4461812694445,-0.28582898246138444,0.003604298801607106,3.713199634741576e-06
3895.392059696101,-15.91369113516636,0.9308346141674463,297.69314678052785,-0.2772046169904108,0.003359160745644762,3.1279687758219746e-06
3493.872721939104,-16.42433620679691,0.9305759289087773,318.73594774133903,-0.26775748371292873,0.003137391001501825,2.635598293630314e-06
3133.740175581326,-16.92354615323175,0.9313540035042694,340.58440921453496,-0.25770928830701056,0.0029361280211277108,2.2216738119285635e-06
2810.728457962311,-17.40968014333168,0.9320971559584017,363.1034107595535,-0.24736593505006135,0.0027540350937500144,1.87619957824434e-06
2521.011322495383,-17.88363282589166,0.9318071564388931,386.2565204962563,-0.23680065246157286,0.0025889520851731253,1.5871979123435604e-06
2261.156914730017,-18.3448645134522,0.931223889152995,410.01751288712074,-0.22609953532908766,0.002438919471692728,1.3449146485764932e-06
2028.087120200046,-18.7906671136809,0.9311611205319902,434.2407883239635,-0.21586959628476837,0.0023028692369776727,1.1448013771385035e-06
1819.041102511201,-19.22090721094855,0.9312796602068218,458.83773251922105,-0.20539854417090092,0.002179419277746414,9.756162474461655e-07
1631.542599757146,-19.63562842481927,0.9309888282191667,483.70446312192723,-0.1961407643909169,0.0020673777312657277,8.383157059954724e-07
1463.370591872546,-20.0369642998193,0.9305108994396195,508.9123906662642,-0.1866212473723234,0.0019649744904373548,7.205680136420456e-07
1312.532991462289,-20.4218381671867,0.9303380000388235,534.2231888544445,-0.17698025791944455,0.0018718766072181178,6.201250931267604e-07
1177.243046460639,-20.79142717849347,0.930629199429135,559.6390884416257,-0.16905510204598312,0.0017868657307927053,5.397742486194117e-07
1055.89817509722,-21.14545685448589,0.9304637956353713,584.988736382109,-0.16081419631027846,0.0017094344937541844,4.699258586725745e-07
947.0609824586614,-21.48415506571542,0.9307246295749189,610.2584629388632,-0.1526514631928654,0.0016386498478252309,4.098956624487605e-07
849.4422337769282,-21.81111378634364,0.9309184558669553,635.6012581607284,-0.14543327397632896,0.0015733133545688142,3.599931705732439e-07
761.8855827538358,-22.12157926126416,0.9308539594209553,660.5451122506656,-0.13965936857248862,0.001513901074659186,3.200848272841047e-07
683.3538740205718,-22.41950982112193,0.9311019640859344,685.3609872973861,-0.13480727031909306,0.0014590850367108177,2.869951377566092e-07
612.9168574775375,-22.70611083074522,0.9309490148977796,710.0164457674633,-0.12863474663631713,0.0014084180347343621,2.5516521220891504e-07
549.7401689842925,-22.9799942824853,0.9309400295271146,734.3623047274673,-0.12583341366813494,0.0013617256280741305,2.3333248882313432e-07
493.0754468699764,-23.24444510746287,0.9308029123030543,758.5975109086442,-0.12114716129372534,0.0013182220612594398,2.1051856667056287e-07
442.2514671889905,-23.50189734781047,0.9313041645323837,782.971371502267,-0.11755668378575444,0.001277185876590589,1.9175890932246783e-07
396.6661927142982,-23.74978297160662,0.9312580932445196,807.0813668552299,-0.11322301313583216,0.0012390324214967738,1.738201250779404e-07
355.7796414844177,-23.99451360779318,0.9318648482851828,831.6352040724163,-0.11192175408786668,0.001202450277466914,1.6182617522504512e-07
319.1074904282311,-24.22556391817843,0.9317671268619727,855.3917926778247,-0.10771512038201546,0.0011690549204504256,1.4721311633736185e-07
286.2153382991239,-24.45710423886453,0.9319790155179969,879.8741268747959,-0.10837354171134381,0.0011365261851501223,1.3998521398723656e-07
256.7135599598404,-24.68477749369225,0.9319569025537842,904.5676703464615,-0.10370422104937797,0.00110550047236764,1.2674017557215472e-07
230.2526910643081,-24.91224626051336,0.9318088833818495,929.8796963524297,-0.10402156405932104,0.0010754079171840295,1.2030116797481063e-07
206.5192884655155,-25.13653230339847,0.9319742442425918,955.5306880360637,-0.09936764600699899,0.0010465388518719144,1.0883177638084887e-07
185.2322173137637,-25.35891471681048,0.9322744405991852,981.6430578452195,-0.09975901749689413,0.0010187002105098465,1.035249333371898e-07
166.1393208639811,-25.58194821564465,0.9314570350286827,1008.376686765767,-0.09735872046407198,0.0009916928899709816,9.574790068834646e-08
149.0144335441905,-25.80783429647214,0.9317684647763292,1036.3009034662875,-0.09247521998189305,0.0009649706843756407,8.61100053230034e-08
133.6547019033232,-26.03908352392371,0.9321431143056529,1065.658644167082,-0.09115033784392249,0.0009383867884499614,8.026423213818242e-08
119.8781817035778,-26.28068405649675,0.9319574924870584,1097.1021147743581,-0.0884862794305917,0.0009114921756399256,7.351599296576028e-08
107.521682693594,-26.50851439895589,0.9317852403515374,1127.5652605106618,-0.0883424889369007,0.0008868666221666859,6.948423075909948e-08
96.43883553262864,-26.75201139762684,0.9327127537543161,1161.1730837187436,-0.08402395443951345,0.0008611980494426139,6.231738117630293e-08
86.49835796741586,-26.99992562071298,0.9319996843916173,1196.1383698888847,-0.08178543435309621,0.000836023674600301,5.7162750629769407e-08
77.58249972364919,-27.2547007569015,0.931910066301722,1233.2183004986564,-0.07850398715625398,0.0008108864387945983,5.161926201595566e-08
69.58564769099335,-27.51596119531559,0.9324500177604726,1272.4844194887003,-0.07701209942796075,0.0007858642361523092,4.7561332590428225e-08
62.41307487929563,-27.78418769113753,0.9319621578464253,1313.8841930169638,-0.07556756451408107,0.0007611020834308463,4.377450546794074e-08
55.97981832671441,-28.06196664445702,0.9321134480264317,1358.2313500517355,-0.07193893932290411,0.0007362515945141465,3.89956827179163e-08
50.20967266798628,-28.35342499441836,0.9321391437177718,1406.2911519761788,-0.0580932968967485,0.0007110903008159279,2.9374841694515363e-08
45.03428744110918,-28.65593014440737,0.9315091897570787,1457.7938604735025,-0.06616092890609436,0.0006859680405125724,3.113216757921041e-08
40.39235743955675,-28.96917741645838,0.9323902341756809,1513.3218081207526,-0.07897184387902084,0.0006607979822339225,3.448336950443614e-08
36.22889651931241,-29.29224648633692,0.9323029021810797,1572.547700986743,-0.06290831233558764,0.0006359107566480774,2.5439020051140792e-08
32.49458625857937,-29.62483896801967,0.9321633792492122,1635.8546236417963,-0.06232943771383628,0.0006113012636306263,2.3291839925867253e-08
29.14519175469204,-29.97071193432966,0.9322515559259612,1704.3578263054987,-0.053421230891170825,0.0005867312506700773,1.839044895933336e-08
26.14103763803102,-30.33112509642821,0.9322504590676345,1778.6844915208185,-0.06615691236525371,0.0005622132555738205,2.091112462996695e-08
23.44653809604605,-30.70528619555866,0.9321938241203392,1859.1673787044542,-0.054444877242964144,0.0005378751857400044,1.5751431955555167e-08
21.02977534027017,-31.09491853570482,0.9320302191709096,1946.7212589440346,-0.059059859868655515,0.0005136842239150516,1.5584212758645477e-08
18.86212152304118,-31.49727415322984,0.9321425037389686,2041.417978004952,-0.06692942786715834,0.0004898555855290251,1.6060284777657608e-08
16.91789962533202,-31.91928513135771,0.9318547424476509,2145.467425554198,-0.06532000746672904,0.0004660988962881855,1.4190652826115041e-08
15.17407929872473,-32.35567239746999,0.9313385382752359,2258.4504177360436,-0.05824811516103975,0.00044278147152650475,1.1419859361138668e-08
13.61000405861361,-32.80104444108095,0.9318257524776862,2380.04051161835,-0.0584323747194598,0.00042016091512546606,1.0315370648203167e-08
12.20714659709511,-33.2647736734005,0.9326975224036484,2513.56045741206,-0.04459868670290282,0.00039784203190193767,7.059003528528239e-09
10.94888931709475,-33.74610119185459,0.9323917612197958,2659.5342921125166,-0.058364132866028165,0.000376005679823022,8.251536940379359e-09
9.820327488040359,-34.23412998982229,0.9324897219407873,2816.1636897237067,-0.057607862500236424,0.0003550929952085476,7.263835024013846e-09
8.808092691355368,-34.72307106824702,0.9334825177098022,2982.4781718716586,-0.0786367174218125,0.0003352916406014366,8.840377859102625e-09
7.900194464389434,-35.22723584869716,0.932443477985802,3163.319950953189,-0.07854263301794451,0.00031612357108618954,7.849088305045783e-09
7.085878266974218,-35.72527271172102,0.9324614630297139,3352.9589718454454,-0.03557400309074884,0.0002982440311033811,3.16428986258354e-09
6.355498088142062,-36.21454717510064,0.9321180213085203,3550.006326954063,-0.06794507824601842,0.00028168963870317694,5.391377586417378e-09
5.70040218396605,-36.68835605416782,0.9327095348479744,3752.097797824745,-0.08648715149261924,0.00026651757319556677,6.143322208118752e-09
5.112830593025045,-37.13731233667441,0.9321914881833581,3953.5494346591527,-0.09027301904563782,0.0002529372696625578,5.7754206287212516e-09
4.585823215509546,-37.53971830223696,0.9320721509852932,4143.334690109207,-0.05476783311698309,0.00024135148971007195,3.1902559410734168e-09
4.113137367116223,-37.87440146186917,0.9320818683976334,4308.069689616602,-0.0684921881076474,0.00023212252163827703,3.6904183454574583e-09
3.689173831112888,-38.14774387462047,0.9318640797490924,4447.284912558703,-0.08634710881997415,0.0002248562930607678,4.365740263446149e-09
3.308910532621065,-38.30520158495115,0.9320962336697386,4529.677489736614,-0.05886432227798449,0.00022076626914320778,2.8689143640797435e-09
2.967843049452549,-38.34433665717675,0.932258575148533,4550.444184064379,-0.013886719119610267,0.00021975876629641545,6.706440378540463e-10
2.661931254819004,-38.36113373265638,0.9325637993433894,4559.511267232228,-0.007508756596125605,0.00021932175213250883,3.6118644224745653e-10
2.387551459868925,-38.35110229996847,0.932801765477637,4554.316905247911,-0.028154003898297246,0.00021957189645926734,1.3573557039360722e-09
2.141453489154749,-38.31895645163392,0.9326990756939607,4537.253921606382,-0.053444427704063824,0.00022039762753837939,2.5960691807505946e-09
1.920722180566029,-38.26646309491349,0.9326125316222984,4509.568929121763,-0.08756422867621384,0.00022175068511874667,4.3058278975295676e-09
1.722742853674806,-38.20427979031865,0.9318552533740085,4476.648334487412,-0.0732255795252831,0.00022338140613561137,3.6539016910127063e-09
1.545170337447242,-38.14226775982908,0.9325844779367426,4444.823224457617,-0.0008397560188174636,0.0002249808258959478,4.2505403055191306e-11
1.385901190438205,-38.09634927988907,0.932254840456247,4420.954089592114,-0.006619506650242945,0.00022619551792043606,3.386831676570561e-10
1.243048784402136,-38.05867678021811,0.9331403731692649,4402.058495412225,-0.08122518658877957,0.00022716644967387997,4.191592928785838e-09
1.114920956172254,-38.02798629379672,0.932403051114774,4385.978897850133,-0.016654972539680474,0.00022799927297318927,8.657865709971623e-10
0.9999999630826378,-38.04325886880034,0.9327521022874046,4393.964210819835,-0.10185678631765732,0.0002275849213792427,5.275661701787323e-09
