% Moku:Lab Frequency Response Analyzer
% Measurement mode: Input (dBm)
% Channel 1 (on), DC, 200 MHz, 50 Ohm, 1 Vpp, amplitude 200 mVpp (on), offset 500.0 mV (off), output termination 50 Ohm, phase 0.000 deg
% Channel 2 (on), DC, 200 MHz, 50 Ohm, 1 Vpp, amplitude 50 mVpp (off), offset 0.000 0 V (off), output termination 50 Ohm, phase 0.000 deg
% Logarithmic sweep from 1.000000 MHz to 1.000000 Hz with 128 pts, dynamic amplitude mode off, measuring fundamental, delay compensation 229.0 ns (auto), normalization on
% Averaging time 2.00 ms, 30 cycles; Settling time 1.00 s, 1 cycles
% Internal 10 MHz clock
% Acquired 2026-05-22 T 13:51:26 -0300
% Frequency (Hz), Channel 1 Magnitude (dBm), Channel 1 Phase (deg), Channel 2 Magnitude (dBm), Channel 2 Phase (deg)
1.00000000e+06, -1.8067e+01, 9.3197e+00, -1.2492e+01, -3.3670e+00
8.96924538e+05, -1.8103e+01, 9.9398e+00, -1.2476e+01, -3.4013e+00
8.04473626e+05, -1.8147e+01, 1.0626e+01, -1.2457e+01, -3.4590e+00
7.21552135e+05, -1.8190e+01, 1.1445e+01, -1.2438e+01, -3.5571e+00
6.47177815e+05, -1.8239e+01, 1.2371e+01, -1.2417e+01, -3.6694e+00
5.80469663e+05, -1.8299e+01, 1.3400e+01, -1.2393e+01, -3.8772e+00
5.20637484e+05, -1.8366e+01, 1.4563e+01, -1.2363e+01, -4.0631e+00
4.66972534e+05, -1.8445e+01, 1.5856e+01, -1.2329e+01, -4.2765e+00
4.18839124e+05, -1.8539e+01, 1.7279e+01, -1.2291e+01, -4.5087e+00
3.75667088e+05, -1.8648e+01, 1.8837e+01, -1.2246e+01, -4.7534e+00
3.36945029e+05, -1.8780e+01, 2.0509e+01, -1.2193e+01, -5.0018e+00
3.02214265e+05, -1.8936e+01, 2.2313e+01, -1.2132e+01, -5.2414e+00
2.71063389e+05, -1.9118e+01, 2.4236e+01, -1.2066e+01, -5.4720e+00
2.43123405e+05, -1.9331e+01, 2.6267e+01, -1.1992e+01, -5.6777e+00
2.18063348e+05, -1.9576e+01, 2.8396e+01, -1.1912e+01, -5.8498e+00
1.95586367e+05, -1.9856e+01, 3.0595e+01, -1.1825e+01, -5.9808e+00
1.75426212e+05, -2.0176e+01, 3.2845e+01, -1.1736e+01, -6.0624e+00
1.57344074e+05, -2.0537e+01, 3.5115e+01, -1.1644e+01, -6.0909e+00
1.41125761e+05, -2.0937e+01, 3.7377e+01, -1.1552e+01, -6.0610e+00
1.26579158e+05, -2.1381e+01, 3.9594e+01, -1.1461e+01, -5.9759e+00
1.13531953e+05, -2.1865e+01, 4.1734e+01, -1.1373e+01, -5.8378e+00
1.01829594e+05, -2.2387e+01, 4.3767e+01, -1.1289e+01, -5.6535e+00
9.13334617e+04, -2.2943e+01, 4.5660e+01, -1.1210e+01, -5.4296e+00
8.19192229e+04, -2.3530e+01, 4.7397e+01, -1.1139e+01, -5.1770e+00
7.34753611e+04, -2.4146e+01, 4.8968e+01, -1.1075e+01, -4.9046e+00
6.59018543e+04, -2.4785e+01, 5.0334e+01, -1.1018e+01, -4.6190e+00
5.91089902e+04, -2.5442e+01, 5.1506e+01, -1.0964e+01, -4.3264e+00
5.30163037e+04, -2.6115e+01, 5.2466e+01, -1.0919e+01, -4.0359e+00
4.75516237e+04, -2.6805e+01, 5.3226e+01, -1.0879e+01, -3.7511e+00
4.26502181e+04, -2.7506e+01, 5.3769e+01, -1.0847e+01, -3.4765e+00
3.82540271e+04, -2.8206e+01, 5.4129e+01, -1.0815e+01, -3.2156e+00
3.43109756e+04, -2.8910e+01, 5.4287e+01, -1.0791e+01, -2.9679e+00
3.07743559e+04, -2.9604e+01, 5.4263e+01, -1.0768e+01, -2.7346e+00
2.76022750e+04, -3.0290e+01, 5.4077e+01, -1.0748e+01, -2.5194e+00
2.47571577e+04, -3.0965e+01, 5.3705e+01, -1.0731e+01, -2.3203e+00
2.22053022e+04, -3.1624e+01, 5.3222e+01, -1.0716e+01, -2.1374e+00
1.99164804e+04, -3.2269e+01, 5.2604e+01, -1.0706e+01, -1.9661e+00
1.78635800e+04, -3.2894e+01, 5.1852e+01, -1.0694e+01, -1.8116e+00
1.60222832e+04, -3.3503e+01, 5.1043e+01, -1.0685e+01, -1.6713e+00
1.43707790e+04, -3.4085e+01, 5.0135e+01, -1.0676e+01, -1.5439e+00
1.28895043e+04, -3.4652e+01, 4.9221e+01, -1.0668e+01, -1.4270e+00
1.15609127e+04, -3.5181e+01, 4.8228e+01, -1.0661e+01, -1.3217e+00
1.03692663e+04, -3.5700e+01, 4.7234e+01, -1.0654e+01, -1.2244e+00
9.30044934e+03, -3.6191e+01, 4.6239e+01, -1.0648e+01, -1.1376e+00
8.34180123e+03, -3.6671e+01, 4.5275e+01, -1.0643e+01, -1.0595e+00
7.48196621e+03, -3.7125e+01, 4.4342e+01, -1.0637e+01, -9.8878e-01
6.71075908e+03, -3.7566e+01, 4.3534e+01, -1.0633e+01, -9.2536e-01
6.01904449e+03, -3.7988e+01, 4.2689e+01, -1.0628e+01, -8.6591e-01
5.39862869e+03, -3.8405e+01, 4.1970e+01, -1.0624e+01, -8.1561e-01
4.84216254e+03, -3.8807e+01, 4.1284e+01, -1.0619e+01, -7.6614e-01
4.34305440e+03, -3.9210e+01, 4.0715e+01, -1.0613e+01, -7.1986e-01
3.89539206e+03, -3.9610e+01, 4.0184e+01, -1.0609e+01, -6.8114e-01
3.49387272e+03, -4.0002e+01, 3.9688e+01, -1.0606e+01, -6.4379e-01
3.13374018e+03, -4.0404e+01, 3.9206e+01, -1.0601e+01, -6.0880e-01
2.81072846e+03, -4.0788e+01, 3.8736e+01, -1.0596e+01, -5.7615e-01
2.52101132e+03, -4.1194e+01, 3.8335e+01, -1.0592e+01, -5.4570e-01
2.26115691e+03, -4.1597e+01, 3.7923e+01, -1.0589e+01, -5.1487e-01
2.02808712e+03, -4.1984e+01, 3.7389e+01, -1.0583e+01, -4.8540e-01
1.81904110e+03, -4.2365e+01, 3.6980e+01, -1.0580e+01, -4.5955e-01
1.63154260e+03, -4.2745e+01, 3.6391e+01, -1.0577e+01, -4.3357e-01
1.46337059e+03, -4.3129e+01, 3.5906e+01, -1.0572e+01, -4.0785e-01
1.31253299e+03, -4.3506e+01, 3.5367e+01, -1.0569e+01, -3.8737e-01
1.17724305e+03, -4.3872e+01, 3.4861e+01, -1.0567e+01, -3.6752e-01
1.05589818e+03, -4.4230e+01, 3.4247e+01, -1.0565e+01, -3.4670e-01
9.47060982e+02, -4.4570e+01, 3.3610e+01, -1.0562e+01, -3.2866e-01
8.49442234e+02, -4.4897e+01, 3.3151e+01, -1.0560e+01, -3.1112e-01
7.61885583e+02, -4.5223e+01, 3.2594e+01, -1.0558e+01, -2.9426e-01
6.83353874e+02, -4.5549e+01, 3.2109e+01, -1.0556e+01, -2.8300e-01
6.12916857e+02, -4.5866e+01, 3.1613e+01, -1.0554e+01, -2.6536e-01
5.49740169e+02, -4.6160e+01, 3.1093e+01, -1.0552e+01, -2.5451e-01
4.93075447e+02, -4.6461e+01, 3.0784e+01, -1.0550e+01, -2.4355e-01
4.42251467e+02, -4.6763e+01, 3.0394e+01, -1.0548e+01, -2.3265e-01
3.96666193e+02, -4.7052e+01, 3.0084e+01, -1.0545e+01, -2.2195e-01
3.55779641e+02, -4.7341e+01, 2.9716e+01, -1.0545e+01, -2.1113e-01
3.19107490e+02, -4.7615e+01, 2.9383e+01, -1.0543e+01, -2.0400e-01
2.86215338e+02, -4.7906e+01, 2.9329e+01, -1.0542e+01, -1.9390e-01
2.56713560e+02, -4.8163e+01, 2.9034e+01, -1.0540e+01, -1.8940e-01
2.30252691e+02, -4.8467e+01, 2.8959e+01, -1.0537e+01, -1.8333e-01
2.06519288e+02, -4.8747e+01, 2.8756e+01, -1.0536e+01, -1.7605e-01
1.85232217e+02, -4.9014e+01, 2.8644e+01, -1.0535e+01, -1.6910e-01
1.66139321e+02, -4.9295e+01, 2.8509e+01, -1.0535e+01, -1.6093e-01
1.49014434e+02, -4.9564e+01, 2.8611e+01, -1.0534e+01, -1.5575e-01
1.33654702e+02, -4.9864e+01, 2.8300e+01, -1.0533e+01, -1.5044e-01
1.19878182e+02, -5.0154e+01, 2.8285e+01, -1.0530e+01, -1.4769e-01
1.07521683e+02, -5.0402e+01, 2.8282e+01, -1.0529e+01, -1.4242e-01
9.64388355e+01, -5.0708e+01, 2.8408e+01, -1.0528e+01, -1.3409e-01
8.64983580e+01, -5.0968e+01, 2.8177e+01, -1.0526e+01, -1.3523e-01
7.75824997e+01, -5.1269e+01, 2.8099e+01, -1.0525e+01, -1.2935e-01
6.95856477e+01, -5.1572e+01, 2.8246e+01, -1.0525e+01, -1.2597e-01
6.24130749e+01, -5.1837e+01, 2.8155e+01, -1.0523e+01, -1.1654e-01
5.59798183e+01, -5.2133e+01, 2.8056e+01, -1.0522e+01, -1.1516e-01
5.02096727e+01, -5.2450e+01, 2.7993e+01, -1.0521e+01, -1.1208e-01
4.50342874e+01, -5.2727e+01, 2.7733e+01, -1.0520e+01, -1.0813e-01
4.03923574e+01, -5.3013e+01, 2.7862e+01, -1.0519e+01, -1.0180e-01
3.62288965e+01, -5.3333e+01, 2.7649e+01, -1.0518e+01, -9.9241e-02
3.24945863e+01, -5.3620e+01, 2.7365e+01, -1.0517e+01, -9.5426e-02
2.91451918e+01, -5.3925e+01, 2.7286e+01, -1.0516e+01, -8.7931e-02
2.61410376e+01, -5.4202e+01, 2.7037e+01, -1.0516e+01, -8.8360e-02
2.34465381e+01, -5.4459e+01, 2.6505e+01, -1.0515e+01, -8.5991e-02
2.10297753e+01, -5.4739e+01, 2.6349e+01, -1.0514e+01, -8.0512e-02
1.88621215e+01, -5.5046e+01, 2.5727e+01, -1.0514e+01, -7.7400e-02
1.69178996e+01, -5.5293e+01, 2.5299e+01, -1.0513e+01, -7.4982e-02
1.51740793e+01, -5.5526e+01, 2.4961e+01, -1.0513e+01, -7.0450e-02
1.36100041e+01, -5.5806e+01, 2.4327e+01, -1.0512e+01, -6.6343e-02
1.22071466e+01, -5.6040e+01, 2.3911e+01, -1.0511e+01, -6.2588e-02
1.09488893e+01, -5.6233e+01, 2.2944e+01, -1.0511e+01, -6.1409e-02
9.82032749e+00, -5.6441e+01, 2.2515e+01, -1.0510e+01, -5.7963e-02
8.80809269e+00, -5.6647e+01, 2.1980e+01, -1.0510e+01, -5.3756e-02
7.90019446e+00, -5.6813e+01, 2.0968e+01, -1.0509e+01, -5.4057e-02
7.08587827e+00, -5.7020e+01, 2.0500e+01, -1.0509e+01, -4.9107e-02
6.35549809e+00, -5.7146e+01, 1.9915e+01, -1.0509e+01, -4.5835e-02
5.70040218e+00, -5.7322e+01, 1.9040e+01, -1.0508e+01, -4.5601e-02
5.11283059e+00, -5.7429e+01, 1.8132e+01, -1.0509e+01, -4.3050e-02
4.58582322e+00, -5.7554e+01, 1.7754e+01, -1.0509e+01, -4.1472e-02
4.11313737e+00, -5.7650e+01, 1.7122e+01, -1.0509e+01, -3.7374e-02
3.68917383e+00, -5.7732e+01, 1.6150e+01, -1.0509e+01, -3.6282e-02
3.30891053e+00, -5.7794e+01, 1.5722e+01, -1.0509e+01, -3.3394e-02
2.96784305e+00, -5.7829e+01, 1.4999e+01, -1.0509e+01, -3.1049e-02
2.66193125e+00, -5.7901e+01, 1.4625e+01, -1.0509e+01, -3.0782e-02
2.38755146e+00, -5.7978e+01, 1.3907e+01, -1.0509e+01, -3.1577e-02
2.14145349e+00, -5.7963e+01, 1.3826e+01, -1.0509e+01, -2.8935e-02
1.92072218e+00, -5.7955e+01, 1.2787e+01, -1.0509e+01, -3.0009e-02
1.72274285e+00, -5.7988e+01, 1.2366e+01, -1.0509e+01, -2.6955e-02
1.54517034e+00, -5.7989e+01, 1.1639e+01, -1.0509e+01, -2.6086e-02
1.38590119e+00, -5.7958e+01, 1.1493e+01, -1.0509e+01, -2.2180e-02
1.24304878e+00, -5.7914e+01, 1.0949e+01, -1.0509e+01, -2.4942e-02
1.11492096e+00, -5.7898e+01, 1.0831e+01, -1.0509e+01, -2.2486e-02
9.99999963e-01, -5.7857e+01, 1.0324e+01, -1.0509e+01, -2.1842e-02
